id, avg_value, best_value, best_weight
0, 0.0, 0, 0
1, 0.0, 0, 0
2, 0.0, 0, 0
3, 0.0, 0, 0
4, 0.0, 0, 0
5, 0.0, 0, 0
6, 0.0, 0, 0
7, 0.0, 0, 0
8, 0.0, 0, 0
9, 0.0, 0, 0
10, 0.0, 0, 0
11, 0.0, 0, 0
12, 0.0, 0, 0
13, 0.0, 0, 0
14, 0.0, 0, 0
15, 0.0, 0, 0
16, 0.0, 0, 0
17, 0.0, 0, 0
18, 69.28, 34640, 9255
19, 0.0, 0, 0
20, 0.0, 0, 0
21, 0.0, 0, 0
22, 21.466, 10733, 1052
23, 105.34, 30676, 9307
24, 145.432, 31158, 10059
25, 188.392, 36988, 6874
26, 385.124, 37352, 6908
27, 713.768, 45833, 8396
28, 1021.762, 43922, 8741
29, 1349.498, 58434, 9019
30, 2907.6, 58434, 9019
31, 2996.61, 54316, 10023
32, 3996.152, 56559, 9878
33, 5703.18, 59900, 9884
34, 2507.318, 64082, 9841
35, 4216.486, 60145, 8251
36, 3435.702, 64101, 10141
37, 5027.614, 65622, 10165
38, 7365.184, 68388, 10044
39, 10167.412, 67910, 9856
40, 10876.318, 68057, 10048
41, 11093.312, 72837, 10008
42, 16902.914, 71512, 9931
43, 11047.444, 72837, 10008
44, 11684.754, 72837, 10008
45, 16163.256, 72837, 10008
46, 12389.82, 72837, 10008
47, 13756.124, 72837, 10008
48, 17742.93, 73395, 10167
49, 12050.732, 73395, 10167
50, 15109.49, 73395, 10167
51, 16540.95, 73395, 10167
52, 19113.264, 73459, 10168
53, 24668.1, 76583, 10055
54, 25271.126, 77141, 10214
55, 25655.5, 77141, 10214
56, 15469.286, 77141, 10214
57, 20709.352, 82207, 9230
58, 21349.182, 81027, 8911
59, 20536.762, 83247, 10165
60, 23400.486, 85135, 9145
61, 20305.552, 90225, 9808
62, 25461.09, 90802, 10267
63, 26124.528, 90802, 10267
64, 30348.318, 90802, 10267
65, 20864.806, 90802, 10267
66, 15498.208, 90802, 10267
67, 20594.376, 90802, 10267
68, 20136.018, 90802, 10267
69, 24586.592, 90802, 10267
70, 24854.408, 90802, 10267
71, 33019.404, 90802, 10267
72, 36502.154, 90802, 10267
73, 21407.31, 90802, 10267
74, 22248.684, 90802, 10267
75, 24029.71, 90802, 10267
76, 30964.238, 90802, 10267
77, 35080.346, 90802, 10267
78, 35540.454, 90802, 10267
79, 39677.182, 90802, 10267
80, 30796.412, 90802, 10267
81, 37547.652, 90802, 10267
82, 42722.05, 90802, 10267
83, 35121.296, 90802, 10267
84, 33818.172, 90802, 10267
85, 40755.426, 90802, 10267
86, 39214.092, 90802, 10267
87, 34103.396, 90802, 10267
88, 38176.552, 90802, 10267
89, 27063.914, 90802, 10267
90, 28375.88, 90802, 10267
91, 34192.042, 90802, 10267
92, 35954.93, 90802, 10267
93, 26828.13, 90802, 10267
94, 19974.91, 90802, 10267
95, 26068.782, 90802, 10267
96, 17743.704, 90802, 10267
97, 15325.298, 90802, 10267
98, 22635.678, 90802, 10267
99, 26463.938, 90802, 10267
100, 29335.996, 90802, 10267
101, 32149.36, 90802, 10267
102, 35950.182, 90802, 10267
103, 39973.752, 90802, 10267
104, 39024.08, 90802, 10267
105, 41380.474, 90802, 10267
106, 45586.788, 90802, 10267
107, 29672.762, 90802, 10267
108, 35821.548, 90802, 10267
109, 41493.79, 90802, 10267
110, 40363.166, 90802, 10267
111, 34281.272, 90802, 10267
112, 41220.088, 90802, 10267
113, 30745.04, 90802, 10267
114, 33687.716, 90802, 10267
115, 23543.496, 90802, 10267
116, 34931.038, 90802, 10267
117, 34202.556, 90802, 10267
118, 36169.2, 90802, 10267
119, 31195.688, 90802, 10267
120, 25931.238, 90802, 10267
121, 21581.158, 90802, 10267
122, 17965.396, 90802, 10267
123, 17965.396, 90802, 10267
124, 21234.268, 90802, 10267
125, 12880.484, 90802, 10267
126, 10502.032, 90802, 10267
127, 13230.292, 90802, 10267
128, 7432.364, 90802, 10267
129, 9806.616, 90802, 10267
130, 16694.168, 90802, 10267
131, 17797.192, 90802, 10267
132, 18705.212, 90802, 10267
133, 23426.916, 90802, 10267
134, 20857.66, 90802, 10267
135, 15786.148, 90802, 10267
136, 13438.696, 90802, 10267
137, 15422.94, 90802, 10267
138, 15073.132, 90802, 10267
139, 11985.864, 90802, 10267
140, 14528.32, 90802, 10267
141, 17797.192, 90802, 10267
142, 13257.092, 90802, 10267
143, 13801.904, 90802, 10267
144, 19783.412, 90802, 10267
145, 16707.568, 90802, 10267
146, 21429.272, 90802, 10267
147, 27422.204, 90802, 10267
148, 32870.324, 90802, 10267
149, 32325.512, 90802, 10267
150, 37513.47, 90802, 10267
151, 27413.492, 90802, 10267
152, 28758.754, 90802, 10267
153, 32273.772, 90802, 10267
154, 35934.29, 90802, 10267
155, 23708.738, 90802, 10267
156, 17965.414, 90802, 10267
157, 13651.342, 90802, 10267
158, 10999.13, 90802, 10267
159, 8978.194, 90802, 10267
160, 13572.656, 90802, 10267
161, 19136.684, 90802, 10267
162, 17570.252, 90802, 10267
163, 23018.632, 90802, 10267
164, 29272.506, 90802, 10267
165, 28931.966, 90802, 10267
166, 20578.182, 90802, 10267
167, 24404.978, 90802, 10267
168, 23915.058, 90802, 10267
169, 20112.708, 90802, 10267
170, 27592.474, 90802, 10267
171, 34073.548, 90802, 10267
172, 37728.296, 90802, 10267
173, 17252.38, 90802, 10267
174, 19738.166, 90802, 10267
175, 28080.616, 90802, 10267
176, 22848.102, 90802, 10267
177, 20509.918, 90802, 10267
178, 26866.058, 90802, 10267
179, 22859.436, 90802, 10267
180, 30668.408, 90802, 10267
181, 34663.696, 90802, 10267
182, 22155.688, 90802, 10267
183, 26684.454, 90802, 10267
184, 19760.834, 90802, 10267
185, 21395.27, 90802, 10267
186, 25186.286, 90802, 10267
187, 17525.182, 90802, 10267
188, 22509.196, 90802, 10267
189, 21361.81, 90802, 10267
190, 13603.774, 90802, 10267
191, 18380.632, 90802, 10267
192, 21240.552, 90802, 10267
193, 23156.096, 90802, 10267
194, 17211.624, 90802, 10267
195, 23913.328, 90802, 10267
196, 15105.342, 90802, 10267
197, 19472.732, 90802, 10267
198, 21951.248, 90802, 10267
199, 18201.504, 90802, 10267
200, 27393.058, 90802, 10267
201, 21298.952, 90802, 10267
202, 24097.132, 90802, 10267
203, 23132.912, 90802, 10267
204, 25708.9, 90802, 10267
205, 26276.38, 90802, 10267
206, 29545.252, 90802, 10267
207, 37605.032, 90802, 10267
208, 35649.538, 90802, 10267
209, 45819.362, 90802, 10267
210, 49633.046, 90802, 10267
211, 48948.78, 90802, 10267
212, 54606.604, 90802, 10267
213, 57750.072, 90802, 10267
214, 61158.398, 90802, 10267
215, 62401.526, 90802, 10267
216, 61116.248, 90802, 10267
217, 64608.874, 90802, 10267
218, 71858.984, 90802, 10267
219, 71174.718, 90802, 10267
220, 53000.268, 90802, 10267
221, 43570.91, 90802, 10267
222, 46462.524, 90802, 10267
223, 51379.882, 90802, 10267
224, 54453.1, 90802, 10267
225, 24865.698, 90802, 10267
226, 20521.252, 90802, 10267
227, 24851.648, 90802, 10267
228, 23778.79, 90802, 10267
229, 25787.768, 90802, 10267
230, 31599.096, 90802, 10267
231, 23957.678, 90802, 10267
232, 31585.046, 90802, 10267
233, 22672.4, 90802, 10267
234, 28148.62, 90802, 10267
235, 20870.41, 90802, 10267
236, 22518.896, 90802, 10267
237, 29238.244, 90802, 10267
238, 31962.304, 90802, 10267
239, 18523.608, 90802, 10267
240, 21974.084, 90802, 10267
241, 25606.164, 90802, 10267
242, 29238.244, 90802, 10267
243, 21247.668, 90802, 10267
244, 23790.124, 90802, 10267
245, 28148.62, 90802, 10267
246, 33778.344, 90802, 10267
247, 34504.76, 90802, 10267
248, 38667.602, 90802, 10267
249, 40134.484, 90802, 10267
250, 39226.464, 90802, 10267
251, 41405.712, 90802, 10267
252, 44129.772, 90802, 10267
253, 45764.208, 90802, 10267
254, 46853.832, 90802, 10267
255, 37773.632, 90802, 10267
256, 43040.148, 90802, 10267
257, 17978.796, 90802, 10267
258, 23608.52, 90802, 10267
259, 27240.6, 90802, 10267
260, 21066.064, 90802, 10267
261, 25424.56, 90802, 10267
262, 28511.828, 90802, 10267
263, 35594.384, 90802, 10267
264, 39226.464, 90802, 10267
265, 43584.96, 90802, 10267
266, 31417.492, 90802, 10267
267, 33440.114, 90802, 10267
268, 38197.702, 90802, 10267
269, 41415.366, 90802, 10267
270, 30526.98, 90802, 10267
271, 39885.03, 90802, 10267
272, 29797.946, 90802, 10267
273, 30726.526, 90802, 10267
274, 27713.644, 90802, 10267
275, 34811.524, 90802, 10267
276, 34941.92, 90802, 10267
277, 28110.118, 90802, 10267
278, 34211.434, 90802, 10267
279, 25933.488, 90802, 10267
280, 27719.084, 90802, 10267
281, 29565.568, 90802, 10267
282, 23426.916, 90802, 10267
283, 31944.362, 90802, 10267
284, 19196.198, 90802, 10267
285, 22301.408, 90802, 10267
286, 27967.016, 90802, 10267
287, 22137.746, 90802, 10267
288, 23938.178, 90802, 10267
289, 29328.806, 90802, 10267
290, 22588.17, 90802, 10267
291, 26370.304, 90802, 10267
292, 25129.112, 90802, 10267
293, 33721.67, 90802, 10267
294, 18283.56, 91158, 9341
295, 16099.974, 95002, 10136
296, 12834.294, 95002, 10136
297, 11093.544, 91158, 9341
298, 10943.034, 95002, 10136
299, 10590.808, 95002, 10136
300, 14733.26, 95002, 10136
301, 14791.278, 95002, 10136
302, 19820.16, 95002, 10136
303, 17476.576, 95002, 10136
304, 16825.7, 95002, 10136
305, 13356.31, 95002, 10136
306, 17393.28, 95002, 10136
307, 11497.174, 95002, 10136
308, 14126.872, 95002, 10136
309, 20296.36, 95002, 10136
310, 20566.36, 95002, 10136
311, 26750.424, 95002, 10136
312, 17375.972, 95002, 10136
313, 20771.036, 95002, 10136
314, 24568.096, 95002, 10136
315, 19924.752, 95002, 10136
316, 15887.842, 95002, 10136
317, 17635.934, 95002, 10136
318, 10366.192, 95002, 10136
319, 13310.768, 95002, 10136
320, 13557.362, 95002, 10136
321, 15589.378, 95002, 10136
322, 16959.292, 95002, 10136
323, 18778.122, 95002, 10136
324, 14783.636, 95002, 10136
325, 11384.916, 95002, 10136
326, 10029.84, 95002, 10136
327, 13247.888, 95002, 10136
328, 15503.766, 95002, 10136
329, 5301.578, 95002, 10136
330, 8691.002, 95002, 10136
331, 13091.742, 95002, 10136
332, 9104.868, 95002, 10136
333, 9262.844, 95002, 10136
334, 13761.256, 95002, 10136
335, 15895.242, 95002, 10136
336, 19634.822, 95002, 10136
337, 23203.574, 95002, 10136
338, 28322.784, 95002, 10136
339, 28854.516, 95002, 10136
340, 27237.008, 95002, 10136
341, 31165.208, 95002, 10136
342, 31812.228, 95002, 10136
343, 39395.12, 95002, 10136
344, 33516.076, 95002, 10136
345, 22727.772, 95002, 10136
346, 26502.42, 95002, 10136
347, 20531.932, 95002, 10136
348, 22809.362, 95002, 10136
349, 27683.602, 95002, 10136
350, 32131.828, 95002, 10136
351, 39116.9, 95002, 10136
352, 40510.746, 95002, 10136
353, 28788.772, 95002, 10136
354, 32727.134, 95002, 10136
355, 33020.738, 95002, 10136
356, 38823.08, 95002, 10136
357, 43645.096, 95002, 10136
358, 52694.638, 95002, 10136
359, 50259.908, 95002, 10136
360, 56976.784, 95002, 10136
361, 54804.736, 95002, 10136
362, 38966.804, 95002, 10136
363, 23221.994, 95002, 10136
364, 28938.432, 95002, 10136
365, 23107.062, 95002, 10136
366, 22587.628, 95002, 10136
367, 14993.998, 95002, 10136
368, 12142.314, 95002, 10136
369, 21560.912, 95002, 10136
370, 20487.796, 95002, 10136
371, 15194.364, 95002, 10136
372, 18474.102, 95002, 10136
373, 23445.208, 95002, 10136
374, 25597.022, 95002, 10136
375, 30602.14, 95002, 10136
376, 32895.334, 95002, 10136
377, 38816.766, 95002, 10136
378, 40636.206, 95002, 10136
379, 39547.5, 95002, 10136
380, 43833.972, 95002, 10136
381, 32361.536, 95002, 10136
382, 26653.73, 95002, 10136
383, 16370.772, 95002, 10136
384, 15977.466, 95002, 10136
385, 15613.348, 95002, 10136
386, 19461.008, 95002, 10136
387, 25685.198, 95002, 10136
388, 27187.702, 95002, 10136
389, 29370.832, 95002, 10136
390, 29494.346, 95002, 10136
391, 33896.646, 95002, 10136
392, 35408.046, 95002, 10136
393, 24022.978, 95002, 10136
394, 25222.974, 95002, 10136
395, 21774.42, 95002, 10136
396, 27104.082, 95002, 10136
397, 32011.55, 95002, 10136
398, 32059.358, 95002, 10136
399, 34337.532, 95002, 10136
400, 30930.758, 95002, 10136
401, 29750.84, 95002, 10136
402, 36428.262, 95002, 10136
403, 32911.452, 95002, 10136
404, 35692.968, 95002, 10136
405, 42742.216, 95002, 10136
406, 31798.48, 95002, 10136
407, 19338.654, 95002, 10136
408, 23542.766, 95002, 10136
409, 26868.31, 95002, 10136
410, 33330.406, 95002, 10136
411, 37259.928, 95002, 10136
412, 27410.3, 95002, 10136
413, 28183.308, 95002, 10136
414, 20498.618, 95002, 10136
415, 24324.204, 95002, 10136
416, 22516.732, 95002, 10136
417, 16863.316, 95002, 10136
418, 12674.72, 95002, 10136
419, 16808.148, 95002, 10136
420, 21103.362, 95002, 10136
421, 12425.89, 95002, 10136
422, 12160.31, 95002, 10136
423, 19556.638, 95002, 10136
424, 20496.716, 95002, 10136
425, 24996.462, 95002, 10136
426, 29518.442, 95002, 10136
427, 26883.15, 95002, 10136
428, 17897.36, 95002, 10136
429, 21843.308, 95002, 10136
430, 12162.226, 95002, 10136
431, 13318.772, 95002, 10136
432, 12970.734, 95002, 10136
433, 11836.2, 95002, 10136
434, 16082.922, 95002, 10136
435, 15660.748, 95002, 10136
436, 12834.32, 95002, 10136
437, 9488.776, 95002, 10136
438, 10260.216, 95002, 10136
439, 10934.672, 95002, 10136
440, 14403.236, 95002, 10136
441, 22021.93, 95002, 10136
442, 14220.342, 95002, 10136
443, 16824.404, 95002, 10136
444, 21623.388, 95002, 10136
445, 24651.636, 95002, 10136
446, 23541.962, 95002, 10136
447, 21458.636, 95002, 10136
448, 22949.102, 95002, 10136
449, 26153.134, 95002, 10136
450, 29033.544, 95002, 10136
451, 25061.994, 95002, 10136
452, 27152.038, 95002, 10136
453, 25043.46, 95002, 10136
454, 22401.938, 95002, 10136
455, 21850.46, 95002, 10136
456, 28470.25, 95002, 10136
457, 32073.608, 95002, 10136
458, 28672.07, 95002, 10136
459, 25080.528, 95002, 10136
460, 31160.656, 95002, 10136
461, 20501.898, 95002, 10136
462, 23422.852, 95002, 10136
463, 28177.668, 95002, 10136
464, 32658.326, 95002, 10136
465, 34209.38, 95002, 10136
466, 33235.538, 95002, 10136
467, 34015.156, 95002, 10136
468, 37673.634, 95002, 10136
469, 14957.984, 95002, 10136
470, 19292.942, 95002, 10136
471, 22161.464, 95002, 10136
472, 23622.328, 95002, 10136
473, 29523.808, 95002, 10136
474, 32377.796, 95002, 10136
475, 37900.342, 95002, 10136
476, 43396.78, 95002, 10136
477, 25037.894, 95002, 10136
478, 30165.3, 95002, 10136
479, 34712.426, 95002, 10136
480, 39488.692, 95002, 10136
481, 26954.402, 95002, 10136
482, 29629.29, 95002, 10136
483, 34360.446, 95002, 10136
484, 24689.186, 95002, 10136
485, 14808.978, 95002, 10136
486, 12160.256, 95002, 10136
487, 9868.874, 95002, 10136
488, 12148.922, 95002, 10136
489, 8538.846, 95002, 10136
490, 8740.184, 95002, 10136
491, 13870.292, 95002, 10136
492, 16150.34, 95002, 10136
493, 19000.4, 95002, 10136
494, 24119.174, 95002, 10136
495, 17290.364, 95002, 10136
496, 11400.24, 95002, 10136
497, 17290.364, 95002, 10136
498, 10830.228, 95002, 10136
499, 15378.99, 95002, 10136
