id, avg_value, best_value, best_weight
0, 0.0, 0, 0
1, 0.0, 0, 0
2, 0.0, 0, 0
3, 0.0, 0, 0
4, 0.0, 0, 0
5, 0.0, 0, 0
6, 0.0, 0, 0
7, 0.0, 0, 0
8, 0.0, 0, 0
9, 0.0, 0, 0
10, 0.0, 0, 0
11, 0.0, 0, 0
12, 0.0, 0, 0
13, 0.0, 0, 0
14, 0.0, 0, 0
15, 0.0, 0, 0
16, 0.0, 0, 0
17, 0.0, 0, 0
18, 0.0, 0, 0
19, 0.0, 0, 0
20, 0.0, 0, 0
21, 0.0, 0, 0
22, 0.0, 0, 0
23, 9.65, 1817, 874
24, 17.236, 1900, 619
25, 23.874, 3680, 497
26, 54.402, 3706, 907
27, 80.698, 4135, 957
28, 149.582, 4592, 913
29, 215.942, 4724, 709
30, 289.814, 5073, 811
31, 292.522, 5758, 909
32, 640.278, 6502, 936
33, 494.274, 6077, 982
34, 633.252, 6369, 949
35, 651.402, 6606, 976
36, 898.43, 7773, 976
37, 849.188, 7055, 799
38, 1191.052, 7710, 827
39, 1204.692, 7485, 878
40, 1442.548, 8030, 987
41, 1527.494, 7773, 976
42, 1828.146, 8030, 987
43, 1676.632, 8030, 987
44, 2184.898, 8459, 924
45, 2206.1, 8249, 852
46, 2464.874, 8916, 967
47, 2481.456, 8389, 979
48, 2715.362, 8916, 967
49, 2616.732, 8916, 967
50, 2848.886, 8916, 967
51, 3137.42, 8916, 967
52, 3328.202, 8916, 967
53, 3577.418, 8916, 967
54, 3617.648, 8916, 967
55, 4021.996, 8916, 967
56, 3123.232, 9347, 941
57, 3558.102, 9347, 941
58, 2969.854, 9347, 941
59, 1366.514, 9347, 941
60, 1607.914, 9347, 941
61, 1697.442, 9347, 941
62, 2238.436, 9347, 941
63, 2159.22, 9347, 941
64, 2607.224, 9347, 941
65, 3070.86, 10071, 970
66, 3477.824, 10071, 970
67, 3618.734, 10071, 970
68, 3850.774, 10071, 970
69, 3816.006, 10071, 970
70, 2082.528, 10071, 970
71, 2631.048, 10071, 970
72, 3281.5, 10071, 970
73, 2343.702, 10071, 970
74, 1662.418, 10071, 970
75, 1121.892, 10071, 970
76, 1210.498, 10071, 970
77, 721.754, 10071, 970
78, 936.854, 10071, 970
79, 1321.046, 10071, 970
80, 1615.278, 10071, 970
81, 1921.398, 10071, 970
82, 2226.432, 10071, 970
83, 2060.346, 10071, 970
84, 1605.398, 10071, 970
85, 2081.046, 10071, 970
86, 2446.484, 10071, 970
87, 2831.566, 10071, 970
88, 2999.748, 10071, 970
89, 2812.372, 10071, 970
90, 3005.668, 10071, 970
91, 3812.11, 10071, 970
92, 4194.466, 10071, 970
93, 4441.248, 10071, 970
94, 3084.31, 10071, 970
95, 3569.706, 10071, 970
96, 4099.634, 10071, 970
97, 4259.764, 10071, 970
98, 3316.076, 10071, 970
99, 3527.114, 10071, 970
100, 2797.558, 10071, 970
101, 2140.676, 10071, 970
102, 2164.772, 10071, 970
103, 2961.484, 10071, 970
104, 2929.758, 10071, 970
105, 2795.19, 10071, 970
106, 3359.326, 10071, 970
107, 3263.114, 10071, 970
108, 3254.86, 10071, 970
109, 3647.352, 10071, 970
110, 3734.8, 10071, 970
111, 3860.194, 10071, 970
112, 4282.296, 10071, 970
113, 3633.486, 10071, 970
114, 4624.13, 10071, 970
115, 3687.4, 10071, 970
116, 3087.662, 10071, 970
117, 3586.884, 10071, 970
118, 3756.136, 10071, 970
119, 3868.58, 10071, 970
120, 3856.52, 10071, 970
121, 4427.508, 10071, 970
122, 4803.112, 10071, 970
123, 3493.314, 10071, 970
124, 3482.908, 10071, 970
125, 3989.6, 10071, 970
126, 3934.578, 10071, 970
127, 4948.206, 10071, 970
128, 4845.28, 10071, 970
129, 5601.796, 10071, 970
130, 5805.264, 10071, 970
131, 5661.686, 10071, 970
132, 2761.592, 10071, 970
133, 2865.556, 10071, 970
134, 2598.352, 10071, 970
135, 1867.838, 10071, 970
136, 1879.13, 10071, 970
137, 2093.988, 10071, 970
138, 2248.266, 10071, 970
139, 2537.958, 10071, 970
140, 3562.784, 10071, 970
141, 3233.684, 10071, 970
142, 3617.596, 10071, 970
143, 3314.93, 10071, 970
144, 4007.588, 10071, 970
145, 4519.646, 10071, 970
146, 4784.304, 10071, 970
147, 5207.504, 10071, 970
148, 5695.856, 10071, 970
149, 4030.406, 10071, 970
150, 4624.56, 10071, 970
151, 3682.048, 10071, 970
152, 4143.49, 10071, 970
153, 4188.078, 10071, 970
154, 4441.49, 10071, 970
155, 4641.616, 10071, 970
156, 3179.34, 10071, 970
157, 1569.562, 10071, 970
158, 2294.908, 10071, 970
159, 1552.916, 10071, 970
160, 1637.184, 10071, 970
161, 2276.28, 10071, 970
162, 2472.32, 10071, 970
163, 2877.044, 10071, 970
164, 1448.778, 10071, 970
165, 917.846, 10071, 970
166, 933.724, 10071, 970
167, 1283.4, 10071, 970
168, 1241.54, 10071, 970
169, 1399.044, 10071, 970
170, 1746.906, 10071, 970
171, 1245.172, 10071, 970
172, 1639.788, 10071, 970
173, 2128.182, 10071, 970
174, 2351.166, 10071, 970
175, 1926.368, 10071, 970
176, 1995.246, 10071, 970
177, 2659.864, 10071, 970
178, 2621.002, 10071, 970
179, 3443.328, 10071, 970
180, 3814.828, 10071, 970
181, 3487.176, 10071, 970
182, 2791.218, 10071, 970
183, 2763.252, 10071, 970
184, 3116.728, 10071, 970
185, 3783.624, 10071, 970
186, 3323.596, 10071, 970
187, 1882.452, 10071, 970
188, 2107.646, 10071, 970
189, 2089.32, 10071, 970
190, 2409.844, 10071, 970
191, 2708.342, 10071, 970
192, 3156.846, 10071, 970
193, 2611.264, 10071, 970
194, 2891.368, 10071, 970
195, 2653.296, 10071, 970
196, 2287.176, 10071, 970
197, 2168.072, 10071, 970
198, 1869.574, 10071, 970
199, 1809.148, 10071, 970
200, 2636.786, 10071, 970
201, 2918.774, 10071, 970
202, 2999.342, 10071, 970
203, 3457.16, 10071, 970
204, 3014.036, 10071, 970
205, 2959.058, 10071, 970
206, 2940.732, 10071, 970
207, 3058.02, 10071, 970
208, 1591.218, 10071, 970
209, 2054.484, 10071, 970
210, 1349.514, 10071, 970
211, 1752.354, 10071, 970
212, 1268.946, 10071, 970
213, 1490.508, 10071, 970
214, 1530.792, 10071, 970
215, 2235.762, 10071, 970
216, 1812.78, 10071, 970
217, 2799.738, 10071, 970
218, 3160.84, 10071, 970
219, 3100.052, 10071, 970
220, 3001.158, 10071, 970
221, 2475.65, 10071, 970
222, 3021.3, 10071, 970
223, 2235.762, 10071, 970
224, 2417.04, 10071, 970
225, 2739.312, 10071, 970
226, 3403.998, 10071, 970
227, 3907.548, 10071, 970
228, 4310.388, 10071, 970
229, 3202.578, 10071, 970
230, 3424.14, 10071, 970
231, 3947.832, 10071, 970
232, 3645.702, 10071, 970
233, 4249.962, 10071, 970
234, 3847.122, 10071, 970
235, 4189.536, 10071, 970
236, 4088.826, 10071, 970
237, 4028.4, 10071, 970
238, 4310.388, 10071, 970
239, 4592.376, 10071, 970
240, 5095.926, 10071, 970
241, 3935.606, 10071, 970
242, 2539.192, 10071, 970
243, 3152.962, 10071, 970
244, 3626.336, 10071, 970
245, 4043.64, 10071, 970
246, 3729.342, 10071, 970
247, 3675.118, 10071, 970
248, 4191.722, 10071, 970
249, 4464.2, 10071, 970
250, 4766.692, 10071, 970
251, 5139.282, 10071, 970
252, 5434.56, 10071, 970
253, 4627.994, 10071, 970
254, 4489.658, 10071, 970
255, 4819.904, 10071, 970
256, 4014.224, 10071, 970
257, 4660.54, 10071, 970
258, 4943.414, 10071, 970
259, 5809.52, 10071, 970
260, 6046.794, 10071, 970
261, 5371.712, 10071, 970
262, 5671.184, 10071, 970
263, 5432.852, 10071, 970
264, 6096.068, 10071, 970
265, 5902.434, 10071, 970
266, 6933.22, 10071, 970
267, 6715.638, 10071, 970
268, 6124.484, 10071, 970
269, 3285.918, 10071, 970
270, 4285.408, 10071, 970
271, 3265.928, 10071, 970
272, 2773.532, 10071, 970
273, 3162.068, 10071, 970
274, 3665.612, 10071, 970
275, 3638.484, 10071, 970
276, 2031.056, 10071, 970
277, 2353.844, 10071, 970
278, 2442.64, 10071, 970
279, 2583.44, 10071, 970
280, 2557.782, 10071, 970
281, 3324.732, 10071, 970
282, 822.326, 10071, 970
283, 762.366, 10071, 970
284, 945.392, 10071, 970
285, 1586.906, 10071, 970
286, 1242.278, 10071, 970
287, 1948.996, 10071, 970
288, 1850.5, 10071, 970
289, 2752.578, 10071, 970
290, 1710.788, 10071, 970
291, 1346.484, 10071, 970
292, 2050.172, 10071, 970
293, 1991.494, 10071, 970
294, 1127.952, 10071, 970
295, 1649.896, 10071, 970
296, 1831.174, 10071, 970
297, 2434.378, 10071, 970
298, 2532.764, 10071, 970
299, 2891.766, 10071, 970
300, 2915.178, 10071, 970
301, 1932.35, 10071, 970
302, 1911.968, 10071, 970
303, 2495.044, 10071, 970
304, 2233.146, 10071, 970
305, 1933.632, 10071, 970
306, 2437.182, 10071, 970
307, 3071.386, 10071, 970
308, 2772.42, 10071, 970
309, 3358.12, 10071, 970
310, 2831.688, 10071, 970
311, 2904.346, 10071, 970
312, 3363.29, 10071, 970
313, 3721.22, 10071, 970
314, 4341.136, 10071, 970
315, 3676.23, 10071, 970
316, 4213.638, 10071, 970
317, 4620.762, 10071, 970
318, 4674.66, 10071, 970
319, 4892.46, 10071, 970
320, 5835.124, 10071, 970
321, 5820.816, 10071, 970
322, 3976.882, 10071, 970
323, 4670.23, 10071, 970
324, 4269.212, 10071, 970
325, 4582.426, 10071, 970
326, 2332.144, 10071, 970
327, 1389.732, 10071, 970
328, 1962.98, 10071, 970
329, 2045.15, 10071, 970
330, 2362.924, 10071, 970
331, 2682.368, 10071, 970
332, 3694.066, 10071, 970
333, 3827.862, 10071, 970
334, 4390.94, 10071, 970
335, 3139.616, 10071, 970
336, 3201.946, 10071, 970
337, 3004.888, 10071, 970
338, 3506.822, 10071, 970
339, 3834.31, 10071, 970
340, 4213.516, 10071, 970
341, 4308.182, 10071, 970
342, 2864.756, 10071, 970
343, 3226.538, 10071, 970
344, 2860.634, 10071, 970
345, 3192.902, 10071, 970
346, 3552.672, 10071, 970
347, 3130.922, 10071, 970
348, 2482.686, 10071, 970
349, 2743.59, 10071, 970
350, 3429.236, 10071, 970
351, 3836.982, 10071, 970
352, 3864.838, 10071, 970
353, 4851.788, 10071, 970
354, 5141.19, 10071, 970
355, 5067.076, 10071, 970
356, 5130.194, 10071, 970
357, 3470.052, 10071, 970
358, 2391.886, 10071, 970
359, 2557.91, 10071, 970
360, 2490.87, 10071, 970
361, 2614.08, 10071, 970
362, 1645.884, 10071, 970
363, 2477.522, 10071, 970
364, 1895.484, 10071, 970
365, 1689.01, 10071, 970
366, 2664.29, 10071, 970
367, 2734.838, 10071, 970
368, 3174.798, 10071, 970
369, 3963.228, 10071, 970
370, 4134.878, 10071, 970
371, 4110.178, 10071, 970
372, 4652.318, 10071, 970
373, 4419.708, 10071, 970
374, 3739.612, 10071, 970
375, 3855.864, 10071, 970
376, 4156.322, 10071, 970
377, 4252.924, 10071, 970
378, 4317.314, 10071, 970
379, 4784.4, 10071, 970
380, 4998.502, 10071, 970
381, 5989.89, 10071, 970
382, 6504.136, 10071, 970
383, 2567.002, 10071, 970
384, 2853.26, 10071, 970
385, 3380.638, 10071, 970
386, 3936.348, 10071, 970
387, 4533.098, 10071, 970
388, 3328.55, 10071, 970
389, 3529.418, 10071, 970
390, 4031.238, 10071, 970
391, 4908.866, 10071, 970
392, 4823.508, 10071, 970
393, 4262.94, 10071, 970
394, 4519.028, 10071, 970
395, 4786.266, 10071, 970
396, 5673.052, 10071, 970
397, 5729.958, 10071, 970
398, 5349.19, 10071, 970
399, 5349.894, 10071, 970
400, 5770.242, 10071, 970
401, 5567.074, 10071, 970
402, 5190.83, 10071, 970
403, 2678.886, 10071, 970
404, 3443.396, 10071, 970
405, 2918.818, 10071, 970
406, 3263.004, 10071, 970
407, 3422.392, 10071, 970
408, 3441.996, 10071, 970
409, 2978.802, 10071, 970
410, 3070.184, 10071, 970
411, 3607.664, 10071, 970
412, 4361.606, 10071, 970
413, 2815.276, 10071, 970
414, 3556.056, 10071, 970
415, 2366.49, 10071, 970
416, 2784.828, 10071, 970
417, 3052.766, 10071, 970
418, 3839.67, 10071, 970
419, 3970.61, 10071, 970
420, 4484.166, 10071, 970
421, 4511.248, 10071, 970
422, 5774.822, 10071, 970
423, 5945.974, 10071, 970
424, 5103.834, 10071, 970
425, 3470.342, 10071, 970
426, 3636.56, 10071, 970
427, 3044.922, 10071, 970
428, 3317.636, 10071, 970
429, 2928.778, 10071, 970
430, 2887.798, 10071, 970
431, 2920.34, 10071, 970
432, 3092.28, 10071, 970
433, 2842.668, 10071, 970
434, 1921.928, 10071, 970
435, 2617.924, 10071, 970
436, 2766.278, 10071, 970
437, 2161.852, 10071, 970
438, 1928.338, 10071, 970
439, 2148.286, 10071, 970
440, 1702.764, 10071, 970
441, 2190.184, 10071, 970
442, 2404.888, 10071, 970
443, 2228.886, 10071, 970
444, 2870.584, 10071, 970
445, 3067.946, 10071, 970
446, 3203.526, 10071, 970
447, 3832.622, 10071, 970
448, 3071.64, 10071, 970
449, 3190.592, 10071, 970
450, 2127.378, 10071, 970
451, 2108.384, 10071, 970
452, 2454.594, 10071, 970
453, 3277.22, 10071, 970
454, 3382.108, 10071, 970
455, 3420.944, 10071, 970
456, 2998.428, 10071, 970
457, 2898.7, 10071, 970
458, 3037.264, 10071, 970
459, 3421.41, 10071, 970
460, 2417.04, 10071, 970
461, 2437.182, 10071, 970
462, 2417.04, 10071, 970
463, 3077.368, 10071, 970
464, 3140.704, 10071, 970
465, 3642.206, 10071, 970
466, 4105.772, 10071, 970
467, 4288.964, 10071, 970
468, 4108.968, 10071, 970
469, 4303.862, 10071, 970
470, 4731.622, 10071, 970
471, 4953.184, 10071, 970
472, 2617.178, 10071, 970
473, 2981.016, 10071, 970
474, 3081.726, 10071, 970
475, 2316.33, 10071, 970
476, 1812.78, 10071, 970
477, 1933.632, 10071, 970
478, 2255.904, 10071, 970
479, 2779.596, 10071, 970
480, 2254.456, 10071, 970
481, 2678.886, 10071, 970
482, 2296.188, 10071, 970
483, 2699.028, 10071, 970
484, 3383.856, 10071, 970
485, 3464.424, 10071, 970
486, 2739.312, 10071, 970
487, 1329.372, 10071, 970
488, 1752.354, 10071, 970
489, 2094.768, 10071, 970
490, 2699.028, 10071, 970
491, 2797.99, 10071, 970
492, 3625.56, 10071, 970
493, 2719.17, 10071, 970
494, 3403.998, 10071, 970
495, 2497.608, 10071, 970
496, 2658.744, 10071, 970
497, 2981.016, 10071, 970
498, 2054.484, 10071, 970
499, 2457.324, 10071, 970
